t,x,theta,u
0.001,-4.35817e-06,0.523594,-10.0017
0.002,-1.74327e-05,0.523581,-10.0017
0.003,-3.92236e-05,0.523559,-10.0017
0.004,-6.97309e-05,0.523528,-10.0017
0.005,-0.000108955,0.523489,-10.0017
0.006,-0.000156895,0.52344,-10.0017
0.007,-0.000213553,0.523383,-10.0017
0.008,-0.000278927,0.523317,-10.0017
0.009,-0.000353018,0.523242,-10.0017
0.01,-0.000435827,0.523158,-10.0017
0.011,-0.000527353,0.523065,-10.0017
0.012,-0.000627598,0.522964,-10.0017
0.013,-0.00073656,0.522854,-10.0017
0.014,-0.000854241,0.522734,-10.0017
0.015,-0.000980641,0.522606,-10.0017
0.016,-0.00111576,0.52247,-10.0017
0.017,-0.0012596,0.522324,-10.0017
0.018,-0.00141216,0.522169,-10.0017
0.019,-0.00157344,0.522006,-10.0017
0.02,-0.00174344,0.521833,-10.0017
0.021,-0.00192216,0.521652,-10.0017
0.022,-0.0021096,0.521462,-10.0017
0.023,-0.00230577,0.521263,-10.0017
0.024,-0.00251065,0.521055,-10.0017
0.025,-0.00272427,0.520838,-10.0017
0.026,-0.0029466,0.520612,-10.0017
0.027,-0.00317766,0.520377,-10.0017
0.028,-0.00341745,0.520133,-10.0017
0.029,-0.00366597,0.51988,-10.0017
0.03,-0.00392321,0.519618,-10.0017
0.031,-0.00418917,0.519347,-10.0017
0.032,-0.00446387,0.519067,-10.0017
0.033,-0.0047473,0.518778,-10.0017
0.034,-0.00503945,0.51848,-10.0017
0.035,-0.00534034,0.518173,-10.0017
0.036,-0.00564996,0.517857,-10.0017
0.037,-0.00596831,0.517532,-10.0017
0.038,-0.0062954,0.517197,-10.0017
0.039,-0.00663122,0.516854,-10.0017
0.04,-0.00697578,0.516501,-10.0017
0.041,-0.00732907,0.516139,-10.0017
0.042,-0.0076911,0.515768,-10.0017
0.043,-0.00806188,0.515388,-10.0017
0.044,-0.00844139,0.514998,-10.0017
0.045,-0.00882964,0.514599,-10.0017
0.046,-0.00922663,0.514191,-10.0017
0.047,-0.00963237,0.513774,-10.0017
0.048,-0.0100469,0.513347,-10.0017
0.049,-0.0104701,0.512911,-10.0017
0.05,-0.0109021,0.512466,-10.0017
0.051,-0.0113428,0.512011,-9.99821
0.052,-0.0117923,0.511547,-9.99821
0.053,-0.0122505,0.511074,-9.99821
0.054,-0.0127174,0.510591,-9.99821
0.055,-0.0131932,0.510098,-9.99821
0.056,-0.0136776,0.509596,-9.99821
0.057,-0.0141708,0.509085,-9.99821
0.058,-0.0146728,0.508564,-9.99821
0.059,-0.0151836,0.508033,-9.99821
0.06,-0.015703,0.507493,-9.99821
0.061,-0.0162313,0.506943,-9.99821
0.062,-0.0167683,0.506384,-9.99821
0.063,-0.0173141,0.505814,-9.99821
0.064,-0.0178686,0.505235,-9.99821
0.065,-0.0184319,0.504647,-9.99821
0.066,-0.019004,0.504048,-9.99821
0.067,-0.0195849,0.50344,-9.99821
0.068,-0.0201745,0.502822,-9.99821
0.069,-0.0207729,0.502194,-9.99821
0.07,-0.02138,0.501557,-9.99821
0.071,-0.021996,0.500909,-9.99821
0.072,-0.0226207,0.500251,-9.99821
0.073,-0.0232542,0.499583,-9.99821
0.074,-0.0238965,0.498906,-9.99821
0.075,-0.0245476,0.498218,-9.99821
0.076,-0.0252074,0.49752,-9.99821
0.077,-0.0258761,0.496812,-9.99821
0.078,-0.0265535,0.496094,-9.99821
0.079,-0.0272397,0.495365,-9.99821
0.08,-0.0279348,0.494627,-9.99821
0.081,-0.0286386,0.493878,-9.99821
0.082,-0.0293512,0.493118,-9.99821
0.083,-0.0300727,0.492349,-9.99821
0.084,-0.0308029,0.491569,-9.99821
0.085,-0.0315419,0.490778,-9.99821
0.086,-0.0322898,0.489977,-9.99821
0.087,-0.0330464,0.489166,-9.99821
0.088,-0.0338119,0.488343,-9.99821
0.089,-0.0345862,0.487511,-9.99821
0.09,-0.0353693,0.486667,-9.99821
0.091,-0.0361612,0.485813,-9.99821
0.092,-0.036962,0.484949,-9.99821
0.093,-0.0377716,0.484073,-9.99821
0.094,-0.03859,0.483187,-9.99821
0.095,-0.0394172,0.482289,-9.99821
0.096,-0.0402533,0.481381,-9.99821
0.097,-0.0410982,0.480462,-9.99821
0.098,-0.041952,0.479532,-9.99821
0.099,-0.0428146,0.47859,-9.99821
0.1,-0.043686,0.477638,-9.99821
0.101,-0.0445663,0.476674,-10.0013
0.102,-0.0454555,0.4757,-10.0013
0.103,-0.0463535,0.474714,-10.0013
0.104,-0.0472603,0.473716,-10.0013
0.105,-0.0481761,0.472708,-10.0013
0.106,-0.0491007,0.471687,-10.0013
0.107,-0.0500341,0.470656,-10.0013
0.108,-0.0509765,0.469613,-10.0013
0.109,-0.0519277,0.468558,-10.0013
0.11,-0.0528878,0.467491,-10.0013
0.111,-0.0538568,0.466413,-10.0013
0.112,-0.0548346,0.465323,-10.0013
0.113,-0.0558214,0.464222,-10.0013
0.114,-0.056817,0.463108,-10.0013
0.115,-0.0578215,0.461983,-10.0013
0.116,-0.058835,0.460845,-10.0013
0.117,-0.0598573,0.459696,-10.0013
0.118,-0.0608886,0.458534,-10.0013
0.119,-0.0619287,0.457361,-10.0013
0.12,-0.0629778,0.456175,-10.0013
0.121,-0.0640358,0.454977,-10.0013
0.122,-0.0651027,0.453766,-10.0013
0.123,-0.0661785,0.452543,-10.0013
0.124,-0.0672633,0.451308,-10.0013
0.125,-0.068357,0.45006,-10.0013
0.126,-0.0694596,0.448799,-10.0013
0.127,-0.0705712,0.447526,-10.0013
0.128,-0.0716917,0.44624,-10.0013
0.129,-0.0728211,0.444941,-10.0013
0.13,-0.0739595,0.44363,-10.0013
0.131,-0.0751069,0.442305,-10.0013
0.132,-0.0762632,0.440968,-10.0013
0.133,-0.0774285,0.439617,-10.0013
0.134,-0.0786028,0.438254,-10.0013
0.135,-0.079786,0.436877,-10.0013
0.136,-0.0809782,0.435486,-10.0013
0.137,-0.0821794,0.434083,-10.0013
0.138,-0.0833896,0.432666,-10.0013
0.139,-0.0846087,0.431236,-10.0013
0.14,-0.0858369,0.429792,-10.0013
0.141,-0.087074,0.428334,-10.0013
0.142,-0.0883202,0.426863,-10.0013
0.143,-0.0895753,0.425377,-10.0013
0.144,-0.0908395,0.423878,-10.0013
0.145,-0.0921127,0.422365,-10.0013
0.146,-0.0933949,0.420838,-10.0013
0.147,-0.0946861,0.419297,-10.0013
0.148,-0.0959864,0.417742,-10.0013
0.149,-0.0972957,0.416173,-10.0013
0.15,-0.0986141,0.414589,-10.0013
0.151,-0.0999415,0.41299,-10.0003
0.152,-0.101278,0.411378,-10.0003
0.153,-0.102623,0.40975,-10.0003
0.154,-0.103978,0.408108,-10.0003
0.155,-0.105342,0.406451,-10.0003
0.156,-0.106714,0.40478,-10.0003
0.157,-0.108096,0.403093,-10.0003
0.158,-0.109487,0.401391,-10.0003
0.159,-0.110887,0.399675,-10.0003
0.16,-0.112296,0.397943,-10.0003
0.161,-0.113714,0.396196,-10.0003
0.162,-0.115141,0.394433,-10.0003
0.163,-0.116577,0.392655,-10.0003
0.164,-0.118023,0.390861,-10.0003
0.165,-0.119477,0.389052,-10.0003
0.166,-0.120941,0.387227,-10.0003
0.167,-0.122414,0.385386,-10.0003
0.168,-0.123896,0.38353,-10.0003
0.169,-0.125387,0.381657,-10.0003
0.17,-0.126887,0.379768,-10.0003
0.171,-0.128397,0.377863,-10.0003
0.172,-0.129915,0.375942,-10.0003
0.173,-0.131443,0.374004,-10.0003
0.174,-0.13298,0.37205,-10.0003
0.175,-0.134526,0.370079,-10.0003
0.176,-0.136081,0.368091,-10.0003
0.177,-0.137646,0.366087,-10.0003
0.178,-0.139219,0.364065,-10.0003
0.179,-0.140802,0.362027,-10.0003
0.18,-0.142394,0.359971,-10.0003
0.181,-0.143995,0.357899,-10.0003
0.182,-0.145606,0.355809,-10.0003
0.183,-0.147226,0.353701,-10.0003
0.184,-0.148854,0.351576,-10.0003
0.185,-0.150493,0.349433,-10.0003
0.186,-0.15214,0.347273,-10.0003
0.187,-0.153797,0.345094,-10.0003
0.188,-0.155463,0.342898,-10.0003
0.189,-0.157138,0.340684,-10.0003
0.19,-0.158822,0.338451,-10.0003
0.191,-0.160516,0.3362,-10.0003
0.192,-0.162219,0.333931,-10.0003
0.193,-0.163932,0.331643,-10.0003
0.194,-0.165653,0.329336,-10.0003
0.195,-0.167384,0.327011,-10.0003
0.196,-0.169124,0.324666,-10.0003
0.197,-0.170874,0.322303,-10.0003
0.198,-0.172633,0.31992,-10.0003
0.199,-0.174401,0.317519,-10.0003
0.2,-0.176179,0.315097,-10.0003
0.201,-0.177966,0.312657,-9.99956
0.202,-0.179762,0.310197,-9.99956
0.203,-0.181568,0.307717,-9.99956
0.204,-0.183383,0.305217,-9.99956
0.205,-0.185207,0.302697,-9.99956
0.206,-0.187041,0.300157,-9.99956
0.207,-0.188884,0.297596,-9.99956
0.208,-0.190737,0.295016,-9.99956
0.209,-0.192599,0.292415,-9.99956
0.21,-0.194471,0.289793,-9.99956
0.211,-0.196352,0.28715,-9.99956
0.212,-0.198242,0.284487,-9.99956
0.213,-0.200142,0.281802,-9.99956
0.214,-0.202051,0.279096,-9.99956
0.215,-0.20397,0.27637,-9.99956
0.216,-0.205898,0.273621,-9.99956
0.217,-0.207835,0.270851,-9.99956
0.218,-0.209782,0.268059,-9.99956
0.219,-0.211739,0.265246,-9.99956
0.22,-0.213705,0.26241,-9.99956
0.221,-0.215681,0.259553,-9.99956
0.222,-0.217666,0.256673,-9.99956
0.223,-0.21966,0.253771,-9.99956
0.224,-0.221665,0.250846,-9.99956
0.225,-0.223678,0.247898,-9.99956
0.226,-0.225702,0.244928,-9.99956
0.227,-0.227734,0.241935,-9.99956
0.228,-0.229777,0.238918,-9.99956
0.229,-0.231829,0.235878,-9.99956
0.23,-0.23389,0.232815,-9.99956
0.231,-0.235961,0.229729,-9.99956
0.232,-0.238042,0.226618,-9.99956
0.233,-0.240132,0.223484,-9.99956
0.234,-0.242232,0.220326,-9.99956
0.235,-0.244342,0.217144,-9.99956
0.236,-0.246461,0.213937,-9.99956
0.237,-0.24859,0.210706,-9.99956
0.238,-0.250728,0.20745,-9.99956
0.239,-0.252876,0.20417,-9.99956
0.24,-0.255034,0.200864,-9.99956
0.241,-0.257202,0.197534,-9.99956
0.242,-0.259379,0.194178,-9.99956
0.243,-0.261566,0.190797,-9.99956
0.244,-0.263762,0.187391,-9.99956
0.245,-0.265968,0.183958,-9.99956
0.246,-0.268184,0.1805,-9.99956
0.247,-0.27041,0.177016,-9.99956
0.248,-0.272645,0.173506,-9.99956
0.249,-0.27489,0.169969,-9.99956
0.25,-0.277145,0.166406,-9.99956
0.251,-0.279404,0.162835,1.31151
0.252,-0.281662,0.159274,1.31151
0.253,-0.283918,0.155723,1.31151
0.254,-0.286172,0.152182,1.31151
0.255,-0.288425,0.148651,1.31151
0.256,-0.290677,0.14513,1.31151
0.257,-0.292927,0.141618,1.31151
0.258,-0.295175,0.138116,1.31151
0.259,-0.297422,0.134623,1.31151
0.26,-0.299668,0.131139,1.31151
0.261,-0.301912,0.127665,1.31151
0.262,-0.304155,0.124199,1.31151
0.263,-0.306396,0.120743,1.31151
0.264,-0.308636,0.117295,1.31151
0.265,-0.310874,0.113856,1.31151
0.266,-0.313111,0.110425,1.31151
0.267,-0.315347,0.107002,1.31151
0.268,-0.317581,0.103588,1.31151
0.269,-0.319813,0.100182,1.31151
0.27,-0.322044,0.0967845,1.31151
0.271,-0.324274,0.0933945,1.31151
0.272,-0.326502,0.0900123,1.31151
0.273,-0.328729,0.0866377,1.31151
0.274,-0.330955,0.0832707,1.31151
0.275,-0.333179,0.0799112,1.31151
0.276,-0.335401,0.0765589,1.31151
0.277,-0.337623,0.0732138,1.31151
0.278,-0.339842,0.0698757,1.31151
0.279,-0.342061,0.0665446,1.31151
0.28,-0.344278,0.0632203,1.31151
0.281,-0.346493,0.0599027,1.31151
0.282,-0.348708,0.0565917,1.31151
0.283,-0.35092,0.0532872,1.31151
0.284,-0.353132,0.0499889,1.31151
0.285,-0.355342,0.0466969,1.31151
0.286,-0.357551,0.043411,1.31151
0.287,-0.359758,0.0401311,1.31151
0.288,-0.361964,0.036857,1.31151
0.289,-0.364169,0.0335887,1.31151
0.29,-0.366372,0.0303259,1.31151
0.291,-0.368574,0.0270687,1.31151
0.292,-0.370774,0.0238168,1.31151
0.293,-0.372974,0.0205702,1.31151
0.294,-0.375171,0.0173288,1.31151
0.295,-0.377368,0.0140923,1.31151
0.296,-0.379563,0.0108607,1.31151
0.297,-0.381757,0.00763393,1.31151
0.298,-0.38395,0.00441179,1.31151
0.299,-0.386141,0.00119419,1.31151
0.3,-0.388331,-0.00201899,1.31151
0.301,-0.390516,-0.00521691,7.89598
0.302,-0.392694,-0.00838869,7.89598
0.303,-0.394863,-0.0115345,7.89598
0.304,-0.397025,-0.0146544,7.89598
0.305,-0.399179,-0.0177485,7.89598
0.306,-0.401325,-0.020817,7.89598
0.307,-0.403463,-0.0238599,7.89598
0.308,-0.405593,-0.0268774,7.89598
0.309,-0.407715,-0.0298697,7.89598
0.31,-0.40983,-0.0328367,7.89598
0.311,-0.411936,-0.0357787,7.89598
0.312,-0.414035,-0.0386957,7.89598
0.313,-0.416126,-0.0415878,7.89598
0.314,-0.418209,-0.0444553,7.89598
0.315,-0.420285,-0.0472981,7.89598
0.316,-0.422352,-0.0501165,7.89598
0.317,-0.424412,-0.0529104,7.89598
0.318,-0.426464,-0.0556801,7.89598
0.319,-0.428508,-0.0584256,7.89598
0.32,-0.430544,-0.061147,7.89598
0.321,-0.432573,-0.0638445,7.89598
0.322,-0.434593,-0.0665182,7.89598
0.323,-0.436606,-0.0691682,7.89598
0.324,-0.438611,-0.0717945,7.89598
0.325,-0.440608,-0.0743973,7.89598
0.326,-0.442598,-0.0769767,7.89598
0.327,-0.44458,-0.0795328,7.89598
0.328,-0.446554,-0.0820657,7.89598
0.329,-0.44852,-0.0845756,7.89598
0.33,-0.450479,-0.0870624,7.89598
0.331,-0.452429,-0.0895264,7.89598
0.332,-0.454372,-0.0919676,7.89598
0.333,-0.456308,-0.0943861,7.89598
0.334,-0.458235,-0.0967821,7.89598
0.335,-0.460155,-0.0991555,7.89598
0.336,-0.462067,-0.101507,7.89598
0.337,-0.463972,-0.103835,7.89598
0.338,-0.465868,-0.106142,7.89598
0.339,-0.467757,-0.108427,7.89598
0.34,-0.469638,-0.110689,7.89598
0.341,-0.471512,-0.11293,7.89598
0.342,-0.473378,-0.115149,7.89598
0.343,-0.475236,-0.117346,7.89598
0.344,-0.477087,-0.119522,7.89598
0.345,-0.47893,-0.121676,7.89598
0.346,-0.480765,-0.123809,7.89598
0.347,-0.482592,-0.12592,7.89598
0.348,-0.484412,-0.12801,7.89598
0.349,-0.486224,-0.130079,7.89598
0.35,-0.488029,-0.132127,7.89598
0.351,-0.489826,-0.134155,7.67156
0.352,-0.491615,-0.136162,7.67156
0.353,-0.493398,-0.138149,7.67156
0.354,-0.495172,-0.140117,7.67156
0.355,-0.49694,-0.142064,7.67156
0.356,-0.4987,-0.143992,7.67156
0.357,-0.500452,-0.1459,7.67156
0.358,-0.502197,-0.147788,7.67156
0.359,-0.503935,-0.149657,7.67156
0.36,-0.505666,-0.151506,7.67156
0.361,-0.507389,-0.153336,7.67156
0.362,-0.509104,-0.155147,7.67156
0.363,-0.510813,-0.156938,7.67156
0.364,-0.512514,-0.15871,7.67156
0.365,-0.514207,-0.160464,7.67156
0.366,-0.515893,-0.162198,7.67156
0.367,-0.517572,-0.163913,7.67156
0.368,-0.519244,-0.16561,7.67156
0.369,-0.520908,-0.167288,7.67156
0.37,-0.522565,-0.168947,7.67156
0.371,-0.524214,-0.170588,7.67156
0.372,-0.525857,-0.17221,7.67156
0.373,-0.527492,-0.173813,7.67156
0.374,-0.529119,-0.175399,7.67156
0.375,-0.530739,-0.176966,7.67156
0.376,-0.532352,-0.178514,7.67156
0.377,-0.533958,-0.180045,7.67156
0.378,-0.535556,-0.181557,7.67156
0.379,-0.537147,-0.183052,7.67156
0.38,-0.538731,-0.184528,7.67156
0.381,-0.540307,-0.185987,7.67156
0.382,-0.541877,-0.187427,7.67156
0.383,-0.543438,-0.18885,7.67156
0.384,-0.544993,-0.190256,7.67156
0.385,-0.54654,-0.191643,7.67156
0.386,-0.54808,-0.193013,7.67156
0.387,-0.549613,-0.194366,7.67156
0.388,-0.551139,-0.195701,7.67156
0.389,-0.552657,-0.197019,7.67156
0.39,-0.554168,-0.198319,7.67156
0.391,-0.555671,-0.199602,7.67156
0.392,-0.557168,-0.200868,7.67156
0.393,-0.558657,-0.202117,7.67156
0.394,-0.560139,-0.203348,7.67156
0.395,-0.561614,-0.204563,7.67156
0.396,-0.563081,-0.20576,7.67156
0.397,-0.564541,-0.206941,7.67156
0.398,-0.565994,-0.208105,7.67156
0.399,-0.56744,-0.209252,7.67156
0.4,-0.568879,-0.210382,7.67156
0.401,-0.570311,-0.211497,6.70646
0.402,-0.571736,-0.212599,6.70646
0.403,-0.573155,-0.213687,6.70646
0.404,-0.574568,-0.214761,6.70646
0.405,-0.575975,-0.215822,6.70646
0.406,-0.577376,-0.21687,6.70646
0.407,-0.57877,-0.217905,6.70646
0.408,-0.580158,-0.218926,6.70646
0.409,-0.58154,-0.219934,6.70646
0.41,-0.582915,-0.220929,6.70646
0.411,-0.584285,-0.22191,6.70646
0.412,-0.585648,-0.222879,6.70646
0.413,-0.587005,-0.223835,6.70646
0.414,-0.588355,-0.224777,6.70646
0.415,-0.589699,-0.225707,6.70646
0.416,-0.591038,-0.226623,6.70646
0.417,-0.592369,-0.227527,6.70646
0.418,-0.593695,-0.228418,6.70646
0.419,-0.595015,-0.229296,6.70646
0.42,-0.596328,-0.230162,6.70646
0.421,-0.597635,-0.231015,6.70646
0.422,-0.598936,-0.231855,6.70646
0.423,-0.60023,-0.232682,6.70646
0.424,-0.601519,-0.233497,6.70646
0.425,-0.602801,-0.234299,6.70646
0.426,-0.604077,-0.235089,6.70646
0.427,-0.605347,-0.235866,6.70646
0.428,-0.60661,-0.236631,6.70646
0.429,-0.607868,-0.237383,6.70646
0.43,-0.609119,-0.238123,6.70646
0.431,-0.610364,-0.238851,6.70646
0.432,-0.611603,-0.239566,6.70646
0.433,-0.612835,-0.240269,6.70646
0.434,-0.614062,-0.24096,6.70646
0.435,-0.615282,-0.241638,6.70646
0.436,-0.616496,-0.242305,6.70646
0.437,-0.617704,-0.242959,6.70646
0.438,-0.618905,-0.243601,6.70646
0.439,-0.620101,-0.244231,6.70646
0.44,-0.62129,-0.244849,6.70646
0.441,-0.622473,-0.245454,6.70646
0.442,-0.62365,-0.246048,6.70646
0.443,-0.624821,-0.24663,6.70646
0.444,-0.625986,-0.2472,6.70646
0.445,-0.627144,-0.247757,6.70646
0.446,-0.628296,-0.248303,6.70646
0.447,-0.629442,-0.248837,6.70646
0.448,-0.630582,-0.24936,6.70646
0.449,-0.631716,-0.24987,6.70646
0.45,-0.632844,-0.250368,6.70646
0.451,-0.633965,-0.250856,5.90643
0.452,-0.635082,-0.251335,5.90643
0.453,-0.636193,-0.251804,5.90643
0.454,-0.637299,-0.252265,5.90643
0.455,-0.638399,-0.252716,5.90643
0.456,-0.639494,-0.253158,5.90643
0.457,-0.640584,-0.253591,5.90643
0.458,-0.641668,-0.254015,5.90643
0.459,-0.642747,-0.254429,5.90643
0.46,-0.64382,-0.254835,5.90643
0.461,-0.644888,-0.255231,5.90643
0.462,-0.645951,-0.255619,5.90643
0.463,-0.647009,-0.255998,5.90643
0.464,-0.648061,-0.256367,5.90643
0.465,-0.649107,-0.256728,5.90643
0.466,-0.650149,-0.257079,5.90643
0.467,-0.651185,-0.257422,5.90643
0.468,-0.652215,-0.257755,5.90643
0.469,-0.653241,-0.25808,5.90643
0.47,-0.654261,-0.258396,5.90643
0.471,-0.655275,-0.258703,5.90643
0.472,-0.656284,-0.259001,5.90643
0.473,-0.657288,-0.25929,5.90643
0.474,-0.658287,-0.25957,5.90643
0.475,-0.65928,-0.259842,5.90643
0.476,-0.660268,-0.260104,5.90643
0.477,-0.66125,-0.260358,5.90643
0.478,-0.662227,-0.260603,5.90643
0.479,-0.663199,-0.260839,5.90643
0.48,-0.664166,-0.261067,5.90643
0.481,-0.665127,-0.261286,5.90643
0.482,-0.666083,-0.261495,5.90643
0.483,-0.667033,-0.261697,5.90643
0.484,-0.667978,-0.261889,5.90643
0.485,-0.668918,-0.262073,5.90643
0.486,-0.669852,-0.262247,5.90643
0.487,-0.670781,-0.262414,5.90643
0.488,-0.671705,-0.262571,5.90643
0.489,-0.672623,-0.26272,5.90643
0.49,-0.673536,-0.26286,5.90643
0.491,-0.674444,-0.262991,5.90643
0.492,-0.675346,-0.263114,5.90643
0.493,-0.676243,-0.263228,5.90643
0.494,-0.677135,-0.263333,5.90643
0.495,-0.678021,-0.26343,5.90643
0.496,-0.678902,-0.263517,5.90643
0.497,-0.679777,-0.263597,5.90643
0.498,-0.680648,-0.263667,5.90643
0.499,-0.681513,-0.263729,5.90643
0.5,-0.682372,-0.263782,5.90643
0.501,-0.683226,-0.263827,5.90643
0.502,-0.684076,-0.263864,4.95119
0.503,-0.684921,-0.263896,4.95119
0.504,-0.685761,-0.263922,4.95119
0.505,-0.686598,-0.263943,4.95119
0.506,-0.687429,-0.263958,4.95119
0.507,-0.688257,-0.263967,4.95119
0.508,-0.68908,-0.263971,4.95119
0.509,-0.689898,-0.263969,4.95119
0.51,-0.690712,-0.263962,4.95119
0.511,-0.691522,-0.263949,4.95119
0.512,-0.692328,-0.26393,4.95119
0.513,-0.693129,-0.263906,4.95119
0.514,-0.693925,-0.263876,4.95119
0.515,-0.694717,-0.26384,4.95119
0.516,-0.695505,-0.263799,4.95119
0.517,-0.696289,-0.263752,4.95119
0.518,-0.697068,-0.263699,4.95119
0.519,-0.697842,-0.263641,4.95119
0.52,-0.698613,-0.263578,4.95119
0.521,-0.699378,-0.263508,4.95119
0.522,-0.70014,-0.263433,4.95119
0.523,-0.700897,-0.263353,4.95119
0.524,-0.701649,-0.263266,4.95119
0.525,-0.702398,-0.263174,4.95119
0.526,-0.703141,-0.263077,4.95119
0.527,-0.703881,-0.262974,4.95119
0.528,-0.704616,-0.262865,4.95119
0.529,-0.705347,-0.26275,4.95119
0.53,-0.706073,-0.26263,4.95119
0.531,-0.706795,-0.262504,4.95119
0.532,-0.707512,-0.262372,4.95119
0.533,-0.708225,-0.262235,4.95119
0.534,-0.708934,-0.262092,4.95119
0.535,-0.709638,-0.261943,4.95119
0.536,-0.710338,-0.261789,4.95119
0.537,-0.711033,-0.261629,4.95119
0.538,-0.711724,-0.261463,4.95119
0.539,-0.712411,-0.261292,4.95119
0.54,-0.713093,-0.261114,4.95119
0.541,-0.713771,-0.260931,4.95119
0.542,-0.714444,-0.260743,4.95119
0.543,-0.715113,-0.260548,4.95119
0.544,-0.715778,-0.260348,4.95119
0.545,-0.716438,-0.260142,4.95119
0.546,-0.717094,-0.25993,4.95119
0.547,-0.717745,-0.259712,4.95119
0.548,-0.718392,-0.259489,4.95119
0.549,-0.719035,-0.25926,4.95119
0.55,-0.719673,-0.259025,4.95119
0.551,-0.720307,-0.258784,4.95119
0.552,-0.720936,-0.258539,4.03584
0.553,-0.721563,-0.25829,4.03584
0.554,-0.722186,-0.258039,4.03584
0.555,-0.722805,-0.257785,4.03584
0.556,-0.723421,-0.257528,4.03584
0.557,-0.724033,-0.257268,4.03584
0.558,-0.724642,-0.257005,4.03584
0.559,-0.725247,-0.256739,4.03584
0.56,-0.725849,-0.25647,4.03584
0.561,-0.726447,-0.256198,4.03584
0.562,-0.727041,-0.255923,4.03584
0.563,-0.727633,-0.255645,4.03584
0.564,-0.72822,-0.255363,4.03584
0.565,-0.728804,-0.255079,4.03584
0.566,-0.729385,-0.254792,4.03584
0.567,-0.729962,-0.254501,4.03584
0.568,-0.730536,-0.254208,4.03584
0.569,-0.731106,-0.253911,4.03584
0.57,-0.731673,-0.253611,4.03584
0.571,-0.732236,-0.253308,4.03584
0.572,-0.732795,-0.253002,4.03584
0.573,-0.733351,-0.252693,4.03584
0.574,-0.733904,-0.252381,4.03584
0.575,-0.734453,-0.252065,4.03584
0.576,-0.734998,-0.251746,4.03584
0.577,-0.73554,-0.251424,4.03584
0.578,-0.736079,-0.251099,4.03584
0.579,-0.736614,-0.25077,4.03584
0.58,-0.737145,-0.250438,4.03584
0.581,-0.737673,-0.250103,4.03584
0.582,-0.738197,-0.249765,4.03584
0.583,-0.738718,-0.249423,4.03584
0.584,-0.739235,-0.249078,4.03584
0.585,-0.739749,-0.24873,4.03584
0.586,-0.74026,-0.248378,4.03584
